Time (s),Centre position X,Centre position Y,In Q1,In Q2,In Q3,In Q4,In Platform
0.000,,,0,0,1,0,0
0.608,153,299,0,0,1,0,0
0.672,150,293,0,0,1,0,0
0.799,143,283,0,0,1,0,0
0.927,136,275,0,0,1,0,0
1.056,132,266,0,0,1,0,0
1.168,130,258,0,0,1,0,0
1.296,132,246,0,0,0,1,0
1.360,133,240,0,0,0,1,0
1.488,134,229,0,0,0,1,0
1.616,139,219,0,0,0,1,0
1.744,148,206,0,0,0,1,0
1.855,157,196,0,0,0,1,0
1.984,165,187,0,0,0,1,0
2.112,174,179,0,0,0,1,0
2.240,184,172,0,0,0,1,0
2.368,193,164,0,0,0,1,0
2.480,204,157,0,0,0,1,0
2.608,214,150,0,0,0,1,0
2.736,224,143,0,0,0,1,0
2.864,234,137,0,0,0,1,0
2.992,244,130,0,0,0,1,0
3.120,255,123,0,0,0,1,0
3.232,266,116,0,0,0,1,0
3.360,277,110,0,0,0,1,0
3.488,288,103,0,0,0,1,0
3.616,299,98,0,0,0,1,0
3.743,311,93,0,0,0,1,0
3.855,323,88,0,0,0,1,0
3.984,333,81,1,0,0,0,0
4.048,339,79,1,0,0,0,0
4.176,350,74,1,0,0,0,0
4.304,360,70,1,0,0,0,0
4.432,369,65,1,0,0,0,0
4.544,377,61,1,0,0,0,0
4.672,386,59,1,0,0,0,0
4.799,393,61,1,0,0,0,0
4.928,399,66,1,0,0,0,0
5.056,404,72,1,0,0,0,0
5.168,405,79,1,0,0,0,0
5.296,404,88,1,0,0,0,0
5.424,402,98,1,0,0,0,0
5.552,399,108,1,0,0,0,0
5.679,395,118,1,0,0,0,0
5.791,389,127,1,0,0,0,0
5.920,384,137,1,0,0,0,0
6.048,378,147,1,0,0,0,0
6.176,372,157,1,0,0,0,0
6.304,364,164,1,0,0,0,0
6.432,356,172,1,0,0,0,0
6.544,346,178,1,0,0,0,0
6.671,335,184,1,0,0,0,0
6.799,325,190,0,0,0,1,0
6.863,320,193,0,0,0,1,0
6.992,309,200,0,0,0,1,0
7.104,299,207,0,0,0,1,0
7.232,290,214,0,0,0,1,0
7.360,279,221,0,0,0,1,0
7.488,269,228,0,0,0,1,0
7.616,257,234,0,0,0,1,0
7.743,247,241,0,0,0,1,0
7.856,235,246,0,0,0,1,0
7.984,223,250,0,0,1,0,0
8.048,218,253,0,0,1,0,0
8.176,208,258,0,0,1,0,0
8.304,198,264,0,0,1,0,0
8.432,187,269,0,0,1,0,0
8.544,177,275,0,0,1,0,0
8.671,167,280,0,0,1,0,0
8.799,159,285,0,0,1,0,0
8.928,149,288,0,0,1,0,0
9.056,141,287,0,0,1,0,0
9.168,136,282,0,0,1,0,0
9.296,133,276,0,0,1,0,0
9.424,132,265,0,0,1,0,0
9.551,132,257,0,0,1,0,0
9.679,133,247,0,0,0,1,0
9.743,133,242,0,0,0,1,0
9.856,136,226,0,0,0,1,0
9.984,138,211,0,0,0,1,0
10.112,142,198,0,0,0,1,0
10.240,145,186,0,0,0,1,0
10.368,150,174,0,0,0,1,0
10.480,154,162,0,0,0,1,0
10.607,161,150,0,0,0,1,0
10.736,166,138,0,0,0,1,0
10.864,172,127,0,0,0,1,0
10.992,178,118,0,0,0,1,0
11.104,187,110,0,0,0,1,0
11.232,202,107,0,0,0,1,0
11.360,216,106,0,0,0,1,0
11.488,229,107,0,0,0,1,0
11.615,241,108,0,0,0,1,0
11.743,254,108,0,0,0,1,0
11.856,267,106,0,0,0,1,0
11.984,279,103,0,0,0,1,0
12.112,291,99,0,0,0,1,0
12.240,302,94,0,0,0,1,0
12.368,313,89,0,0,0,1,0
12.479,323,84,0,0,0,1,0
12.607,333,81,1,0,0,0,0
12.671,337,80,1,0,0,0,0
12.800,347,78,1,0,0,0,0
12.928,356,81,1,0,0,0,0
13.056,364,86,1,0,0,0,0
13.168,372,92,1,0,0,0,0
13.296,380,99,1,0,0,0,0
13.424,389,104,1,0,0,0,0
13.551,397,110,1,0,0,0,0
13.679,405,117,1,0,0,0,0
13.792,413,124,1,0,0,0,0
13.920,422,128,1,0,0,0,0
14.048,431,130,1,0,0,0,0
14.176,440,131,1,0,0,0,0
14.304,448,133,1,0,0,0,0
14.416,454,136,1,0,0,0,0
14.543,458,141,1,0,0,0,0
14.672,459,148,1,0,0,0,0
14.800,457,156,1,0,0,0,0
14.928,454,165,1,0,0,0,0
15.056,451,175,1,0,0,0,0
15.168,445,184,1,0,0,0,0
15.296,440,192,1,0,0,0,0
15.423,431,199,1,0,0,0,0
15.551,421,204,1,0,0,0,0
15.680,410,207,1,0,0,0,0
15.792,399,210,1,0,0,0,0
15.920,388,211,1,0,0,0,0
16.048,378,210,1,0,0,0,0
16.176,368,206,1,0,0,0,0
16.304,358,200,1,0,0,0,0
16.416,347,194,1,0,0,0,0
16.543,337,187,1,0,0,0,0
16.672,328,180,0,0,0,1,0
16.736,325,176,0,0,0,1,0
16.864,320,165,0,0,0,1,0
16.992,316,154,0,0,0,1,0
17.104,313,142,0,0,0,1,0
17.232,310,130,0,0,0,1,0
17.360,310,119,0,0,0,1,0
17.487,312,108,0,0,0,1,0
17.616,317,98,0,0,0,1,0
17.728,324,88,0,0,0,1,0
17.856,331,78,1,0,0,0,0
17.920,333,74,1,0,0,0,0
18.048,337,64,1,0,0,0,0
18.176,335,55,1,0,0,0,0
18.304,331,47,1,0,0,0,0
18.416,327,39,0,0,0,1,0
18.543,321,38,0,0,0,1,0
18.672,315,40,0,0,0,1,0
18.800,307,43,0,0,0,1,0
18.928,293,47,0,0,0,1,0
19.040,281,51,0,0,0,1,0
19.168,270,55,0,0,0,1,0
19.296,260,59,0,0,0,1,0
19.423,251,66,0,0,0,1,0
19.552,243,74,0,0,0,1,0
19.680,236,83,0,0,0,1,0
19.792,230,93,0,0,0,1,0
19.920,224,103,0,0,0,1,0
20.048,218,112,0,0,0,1,0
20.176,214,123,0,0,0,1,0
20.303,212,134,0,0,0,1,0
20.415,212,145,0,0,0,1,0
20.544,215,156,0,0,0,1,0
20.672,219,167,0,0,0,1,0
20.800,224,177,0,0,0,1,0
20.928,229,188,0,0,0,1,0
21.040,233,200,0,0,0,1,0
21.168,237,212,0,0,0,1,0
21.295,241,223,0,0,0,1,0
21.424,247,234,0,0,0,1,0
21.552,253,244,0,0,0,1,0
21.680,261,253,0,0,1,0,0
21.728,265,258,0,0,1,0,0
21.856,274,266,0,0,1,0,0
21.984,283,274,0,0,1,0,0
22.112,291,283,0,0,1,0,0
22.239,299,292,0,0,1,0,0
22.367,306,301,0,0,1,0,0
22.480,314,311,0,0,1,0,0
22.608,321,321,0,0,1,0,0
22.736,330,331,0,0,1,0,0
22.864,338,340,0,1,0,0,0
22.928,342,345,0,1,0,0,0
23.040,351,354,0,1,0,0,0
23.168,360,363,0,1,0,0,0
23.295,367,373,0,1,0,0,0
23.423,373,383,0,1,0,0,0
23.552,378,393,0,1,0,0,0
23.680,382,403,0,1,0,0,0
23.792,385,413,0,1,0,0,0
23.920,385,423,0,1,0,0,0
24.048,382,430,0,1,0,0,0
24.175,376,432,0,1,0,0,0
24.303,368,433,0,1,0,0,0
24.416,357,434,0,1,0,0,0
24.544,348,435,0,1,0,0,0
24.672,339,436,0,1,0,0,0
24.800,330,435,0,0,1,0,0
24.864,323,432,0,0,1,0,0
24.992,311,425,0,0,1,0,0
25.104,301,417,0,0,1,0,0
25.231,292,410,0,0,1,0,0
25.359,282,401,0,0,1,0,0
25.488,273,392,0,0,1,0,0
25.616,264,384,0,0,1,0,0
25.728,256,375,0,0,1,0,0
25.856,249,366,0,0,1,0,0
25.984,244,355,0,0,1,0,0
26.112,238,344,0,0,1,0,0
26.239,233,332,0,0,1,0,0
26.352,226,322,0,0,1,0,0
26.480,219,313,0,0,1,0,0
26.608,210,306,0,0,1,0,0
26.736,202,299,0,0,1,0,0
26.864,196,292,0,0,1,0,0
26.992,193,282,0,0,1,0,0
27.104,192,272,0,0,1,0,0
27.231,192,262,0,0,1,0,0
27.359,193,251,0,0,1,0,0
27.488,195,240,0,0,0,1,0
27.552,196,234,0,0,0,1,0
27.680,200,223,0,0,0,1,0
27.792,204,212,0,0,0,1,0
27.920,210,201,0,0,0,1,0
28.048,217,192,0,0,0,1,0
28.175,226,184,0,0,0,1,0
28.304,235,176,0,0,0,1,0
28.416,245,168,0,0,0,1,0
28.544,255,162,0,0,0,1,0
28.672,266,159,0,0,0,1,0
28.800,277,156,0,0,0,1,0
28.928,288,155,0,0,0,1,0
29.040,300,156,0,0,0,1,0
29.167,310,157,0,0,0,1,0
29.296,321,158,0,0,0,1,0
29.424,331,159,1,0,0,0,0
29.488,337,159,1,0,0,0,0
29.616,348,158,1,0,0,0,0
29.728,359,158,1,0,0,0,0
29.856,369,157,1,0,0,0,0
29.984,379,156,1,0,0,0,0
30.111,389,155,1,0,0,0,0
30.239,397,155,0,0,0,0,1
30.303,401,156,0,0,0,0,1
30.416,406,160,0,0,0,0,1
30.544,409,166,0,0,0,0,1
30.672,411,173,0,0,0,0,1
30.800,411,181,0,0,0,0,1
30.928,409,190,0,0,0,0,1
31.039,406,200,1,0,0,0,0
31.103,404,204,1,0,0,0,0
31.231,399,214,1,0,0,0,0
31.360,395,224,1,0,0,0,0
31.488,389,233,1,0,0,0,0
31.616,381,239,1,0,0,0,0
31.728,373,244,1,0,0,0,0
31.856,363,247,1,0,0,0,0
31.984,355,249,0,1,0,0,0
32.047,352,249,0,1,0,0,0
32.175,344,248,1,0,0,0,0
32.239,340,247,1,0,0,0,0
32.352,332,245,1,0,0,0,0
32.480,326,240,0,0,0,1,0
32.544,322,237,0,0,0,1,0
32.672,316,231,0,0,0,1,0
32.800,309,224,0,0,0,1,0
32.928,300,219,0,0,0,1,0
33.039,292,213,0,0,0,1,0
33.167,285,206,0,0,0,1,0
33.296,279,198,0,0,0,1,0
33.424,275,188,0,0,0,1,0
33.552,272,177,0,0,0,1,0
33.664,268,166,0,0,0,1,0
33.792,263,155,0,0,0,1,0
33.920,258,144,0,0,0,1,0
34.047,254,132,0,0,0,1,0
34.176,250,121,0,0,0,1,0
34.304,246,109,0,0,0,1,0
34.416,242,98,0,0,0,1,0
34.544,237,88,0,0,0,1,0
34.672,231,78,0,0,0,1,0
34.864,223,72,0,0,0,1,0
34.976,221,76,0,0,0,1,0
35.103,217,79,0,0,0,1,0
35.232,211,90,0,0,0,1,0
35.360,205,104,0,0,0,1,0
35.488,199,114,0,0,0,1,0
35.616,195,124,0,0,0,1,0
35.728,194,134,0,0,0,1,0
35.856,196,144,0,0,0,1,0
35.983,200,153,0,0,0,1,0
36.111,206,162,0,0,0,1,0
36.240,212,170,0,0,0,1,0
36.352,220,178,0,0,0,1,0
36.480,228,186,0,0,0,1,0
36.608,236,195,0,0,0,1,0
36.736,244,203,0,0,0,1,0
36.864,252,211,0,0,0,1,0
36.975,259,219,0,0,0,1,0
37.103,268,228,0,0,0,1,0
37.232,275,235,0,0,0,1,0
37.360,284,241,0,0,0,1,0
37.488,293,248,0,0,0,1,0
37.616,302,254,0,0,1,0,0
37.664,307,257,0,0,1,0,0
37.792,316,261,0,0,1,0,0
37.919,326,266,0,0,1,0,0
38.048,335,272,0,1,0,0,0
38.111,339,276,0,1,0,0,0
38.240,348,283,0,1,0,0,0
38.352,356,291,0,1,0,0,0
38.480,364,298,0,1,0,0,0
38.608,373,303,0,1,0,0,0
38.736,383,308,0,1,0,0,0
38.863,392,311,0,1,0,0,0
38.975,401,314,0,1,0,0,0
39.104,411,318,0,1,0,0,0
39.232,420,322,0,1,0,0,0
39.360,429,326,0,1,0,0,0
39.488,437,327,0,1,0,0,0
39.616,444,324,0,1,0,0,0
39.728,450,320,0,1,0,0,0
39.856,455,314,0,1,0,0,0
39.983,460,307,0,1,0,0,0
40.112,465,301,0,1,0,0,0
40.240,472,296,0,1,0,0,0
40.352,478,294,0,1,0,0,0
40.480,485,295,0,1,0,0,0
40.608,489,298,0,1,0,0,0
40.736,492,304,0,1,0,0,0
40.863,494,311,0,1,0,0,0
40.976,495,318,0,1,0,0,0
41.104,494,324,0,1,0,0,0
41.232,490,329,0,1,0,0,0
41.360,483,335,0,1,0,0,0
41.488,476,341,0,1,0,0,0
41.600,468,347,0,1,0,0,0
41.728,461,353,0,1,0,0,0
41.855,453,359,0,1,0,0,0
41.984,444,365,0,1,0,0,0
42.112,435,370,0,1,0,0,0
42.240,425,374,0,1,0,0,0
42.352,414,376,0,1,0,0,0
42.480,404,378,0,1,0,0,0
42.608,393,379,0,1,0,0,0
42.735,382,379,0,1,0,0,0
42.863,371,380,0,1,0,0,0
42.976,360,381,0,1,0,0,0
43.104,349,382,0,1,0,0,0
43.232,338,382,0,1,0,0,0
43.360,326,383,0,0,1,0,0
43.424,321,384,0,0,1,0,0
43.552,309,385,0,0,1,0,0
43.664,298,387,0,0,1,0,0
43.791,287,389,0,0,1,0,0
43.919,277,391,0,0,1,0,0
44.048,267,394,0,0,1,0,0
44.176,257,393,0,0,1,0,0
44.288,251,388,0,0,1,0,0
44.416,244,380,0,0,1,0,0
44.544,237,372,0,0,1,0,0
44.672,231,364,0,0,1,0,0
44.799,226,355,0,0,1,0,0
44.927,220,345,0,0,1,0,0
45.040,215,334,0,0,1,0,0
45.168,208,325,0,0,1,0,0
45.296,202,316,0,0,1,0,0
45.424,196,307,0,0,1,0,0
45.552,191,299,0,0,1,0,0
45.663,185,290,0,0,1,0,0
45.791,180,282,0,0,1,0,0
45.920,178,274,0,0,1,0,0
46.048,179,264,0,0,1,0,0
46.176,181,253,0,0,1,0,0
46.288,184,242,0,0,0,1,0
46.352,186,237,0,0,0,1,0
46.480,190,227,0,0,0,1,0
46.608,195,217,0,0,0,1,0
46.735,203,209,0,0,0,1,0
46.863,212,202,0,0,0,1,0
46.976,222,196,0,0,0,1,0
47.104,233,192,0,0,0,1,0
47.232,245,188,0,0,0,1,0
47.360,257,185,0,0,0,1,0
47.488,270,185,0,0,0,1,0
47.600,282,186,0,0,0,1,0
47.727,294,186,0,0,0,1,0
47.855,306,184,0,0,0,1,0
47.984,317,181,0,0,0,1,0
48.112,327,177,0,0,0,1,0
48.240,337,171,1,0,0,0,0
48.288,341,168,1,0,0,0,0
48.416,351,163,1,0,0,0,0
48.544,360,158,1,0,0,0,0
48.671,370,154,1,0,0,0,0
48.799,381,151,1,0,0,0,0
48.912,391,147,1,0,0,0,0
49.040,402,142,1,0,0,0,0
49.168,412,138,1,0,0,0,0
49.296,420,133,1,0,0,0,0
49.424,426,127,1,0,0,0,0
49.552,431,120,1,0,0,0,0
49.663,437,115,1,0,0,0,0
49.791,444,112,1,0,0,0,0
49.920,451,113,1,0,0,0,0
50.048,458,116,1,0,0,0,0
50.176,464,121,1,0,0,0,0
50.288,469,128,1,0,0,0,0
50.416,474,133,1,0,0,0,0
50.543,477,140,1,0,0,0,0
50.671,477,147,1,0,0,0,0
50.799,476,156,1,0,0,0,0
50.912,473,165,1,0,0,0,0
51.040,471,174,1,0,0,0,0
51.168,467,184,1,0,0,0,0
51.296,463,193,1,0,0,0,0
51.424,460,203,1,0,0,0,0
51.551,459,213,1,0,0,0,0
51.663,460,223,1,0,0,0,0
51.791,461,233,1,0,0,0,0
51.920,461,243,1,0,0,0,0
52.048,459,252,0,1,0,0,0
52.112,457,255,0,1,0,0,0
52.223,452,262,0,1,0,0,0
52.352,445,267,0,1,0,0,0
52.480,437,272,0,1,0,0,0
52.608,430,274,0,1,0,0,0
52.735,422,275,0,1,0,0,0
52.864,413,273,0,1,0,0,0
52.976,404,270,0,1,0,0,0
53.104,395,265,0,1,0,0,0
53.232,386,261,0,1,0,0,0
53.360,377,255,0,1,0,0,0
53.487,368,249,0,1,0,0,0
53.599,359,242,1,0,0,0,0
53.663,355,239,1,0,0,0,0
53.792,348,231,1,0,0,0,0
53.920,342,223,1,0,0,0,0
54.048,339,213,1,0,0,0,0
54.176,337,203,1,0,0,0,0
54.288,337,193,1,0,0,0,0
54.416,338,182,1,0,0,0,0
54.543,340,173,1,0,0,0,0
54.671,345,163,1,0,0,0,0
54.800,351,155,1,0,0,0,0
54.912,358,147,1,0,0,0,0
55.040,366,140,1,0,0,0,0
55.168,375,133,1,0,0,0,0
55.296,384,128,1,0,0,0,0
55.423,393,124,1,0,0,0,0
55.535,402,123,1,0,0,0,0
55.663,411,123,1,0,0,0,0
55.792,420,121,1,0,0,0,0
55.920,428,116,1,0,0,0,0
56.048,434,109,1,0,0,0,0
56.176,441,102,1,0,0,0,0
56.288,446,94,1,0,0,0,0
56.415,452,87,1,0,0,0,0
56.543,453,87,1,0,0,0,0
56.671,453,89,1,0,0,0,0
56.800,453,90,1,0,0,0,0
56.912,453,89,1,0,0,0,0
57.040,456,92,1,0,0,0,0
57.168,462,97,1,0,0,0,0
57.296,468,103,1,0,0,0,0
57.423,472,115,1,0,0,0,0
57.535,474,126,1,0,0,0,0
57.664,471,135,1,0,0,0,0
57.792,467,145,1,0,0,0,0
57.920,461,154,1,0,0,0,0
58.048,454,162,1,0,0,0,0
58.176,447,169,1,0,0,0,0
58.288,438,175,1,0,0,0,0
58.415,429,179,1,0,0,0,0
58.543,418,182,0,0,0,0,1
58.607,413,184,0,0,0,0,1
58.736,402,189,0,0,0,0,1
58.864,390,193,1,0,0,0,0
58.912,385,196,1,0,0,0,0
59.040,374,200,1,0,0,0,0
59.168,363,204,1,0,0,0,0
59.296,352,207,1,0,0,0,0
59.423,341,210,1,0,0,0,0
59.535,329,213,0,0,0,1,0
59.600,324,214,0,0,0,1,0
59.728,313,217,0,0,0,1,0
59.856,302,217,0,0,0,1,0
59.984,292,218,0,0,0,1,0
